# Horiz displ, [mm]   Reaction force, [N]
0.0000           0.0000
0.0040           182.8408
0.0080           365.6815
0.0120           548.5219
0.0160           731.3623
0.0200           914.2026
0.0240           1097.0427
0.0280           1279.8828
0.0320           1462.7228
0.0360           1645.5628
0.0400           1828.4028
0.0440           2011.2427
0.0480           2184.1162
0.0520           2341.7355
0.0560           2493.9506
0.0600           2632.4610
0.0640           2750.3799
0.0680           2852.9343
0.0720           2941.1217
0.0760           3020.0653
0.0800           3092.8249
0.0840           3157.8871
0.0880           3215.9368
0.0920           3269.4047
0.0960           3319.9210
0.1000           3366.7510
0.1040           3409.6341
0.1080           3446.9163
0.1120           3478.1317
0.1160           3504.8034
0.1200           3529.6340
0.1240           3552.4833
0.1280           3572.2805
0.1320           3589.4747
0.1360           3605.4458
0.1400           3621.0096
0.1440           3636.0710
0.1480           3650.8904
0.1520           3665.4811
0.1560           3679.9157
0.1600           3694.1000
0.1640           3708.1371
0.1680           3721.8140
0.1720           3735.3667
0.1760           3748.7715
0.1800           3761.9967
0.1840           3775.0360
0.1880           3787.9241
0.1920           3800.6369
0.1960           3813.1835
0.2000           3825.5450
0.2040           3837.8029
0.2080           3849.8756
0.2120           3861.8723
0.2160           3873.8242
0.2200           3885.7429
0.2240           3897.6299
0.2280           3909.4868
0.2320           3921.2309
0.2360           3932.8975
0.2400           3944.5341
0.2440           3956.0886
0.2480           3967.6010
0.2520           3979.0381
0.2560           3990.4492
0.2600           4001.8388
0.2640           4013.1394
0.2680           4024.3513
0.2720           4035.4851
0.2760           4046.5990
0.2800           4057.6947
0.2840           4068.7729
0.2880           4079.8343
0.2920           4090.8797
0.2960           4101.9095
0.3000           4112.9109
0.3040           4123.8663
0.3080           4134.7693
0.3120           4145.6528
0.3160           4156.5233
0.3200           4167.3677
0.3240           4178.1955
0.3280           4189.0118
0.3320           4199.7946
0.3360           4210.5239
0.3400           4221.2134
0.3440           4231.8918
0.3480           4242.5594
0.3520           4253.2164
0.3560           4263.8633
0.3600           4274.4264
0.3640           4284.9647
0.3680           4295.4924
0.3720           4306.0097
0.3760           4316.5170
0.3800           4327.0144
0.3840           4337.4931
0.3880           4347.9500
0.3920           4358.3854
0.3960           4368.7610
0.4000           4379.1235
0.4040           4389.4759
0.4080           4399.8183
0.4120           4410.1200
0.4160           4420.3897
0.4200           4430.6488
0.4240           4440.8976
0.4280           4451.1363
0.4320           4461.3649
0.4360           4471.5837
0.4400           4481.7928
0.4440           4491.9923
0.4480           4502.1825
0.4520           4512.3634
0.4560           4522.5353
0.4600           4532.6981
0.4640           4542.8521
0.4680           4552.9974
0.4720           4563.1341
0.4760           4573.2442
0.4800           4583.3456
0.4840           4593.4384
0.4880           4603.5227
0.4920           4613.5986
0.4960           4623.6663
0.5000           4633.7259
0.5040           4643.7775
0.5080           4653.8211
0.5120           4663.8569
0.5160           4673.8851
0.5200           4683.9056
0.5240           4693.9186
0.5280           4703.9124
0.5320           4713.8985
0.5360           4723.8772
0.5400           4733.8485
0.5440           4743.8127
0.5480           4753.7698
0.5520           4763.7198
0.5560           4773.6629
0.5600           4783.5992
0.5640           4793.5288
0.5680           4803.4517
0.5720           4813.3681
0.5760           4823.2779
0.5800           4833.1814
0.5840           4843.0786
0.5880           4852.9695
0.5920           4862.8544
0.5960           4872.7331
0.6000           4882.6059
0.6040           4892.4728
0.6080           4902.3338
0.6120           4912.1891
0.6160           4922.0388
0.6200           4931.8828
0.6240           4941.7214
0.6280           4951.5544
0.6320           4961.3821
0.6360           4971.2046
0.6400           4981.0217
0.6440           4990.8338
0.6480           5000.6407
0.6520           5010.4426
0.6560           5020.2396
0.6600           5030.0316
0.6640           5039.8189
0.6680           5049.6014
0.6720           5059.3792
0.6760           5069.1524
0.6800           5078.9210
0.6840           5088.6852
0.6880           5098.4449
0.6920           5108.2002
0.6960           5117.9512
0.7000           5127.6980
0.7040           5137.4405
0.7080           5147.1790
0.7120           5156.9134
0.7160           5166.6437
0.7200           5176.3701
0.7240           5186.0926
0.7280           5195.8112
0.7320           5205.5261
0.7360           5215.2372
0.7400           5224.9446
0.7440           5234.6484
0.7480           5244.3486
0.7520           5254.0453
0.7560           5263.7385
0.7600           5273.4283
0.7640           5283.1147
0.7680           5292.7978
0.7720           5302.4776
0.7760           5312.1542
0.7800           5321.8276
0.7840           5331.4979
0.7880           5341.1650
0.7920           5350.8292
0.7960           5360.4903
0.8000           5370.1485
0.8040           5379.8038
0.8080           5389.4563
0.8120           5399.1059
0.8160           5408.7527
0.8200           5418.3968
0.8240           5428.0382
0.8280           5437.6770
0.8320           5447.3132
0.8360           5456.9467
0.8400           5466.5778
0.8440           5476.2063
0.8480           5485.8324
0.8520           5495.4561
0.8560           5505.0774
0.8600           5514.6964
0.8640           5524.3130
0.8680           5533.9274
0.8720           5543.5396
0.8760           5553.1495
0.8800           5562.7573
0.8840           5572.3629
0.8880           5581.9665
0.8920           5591.5679
0.8960           5601.1674
0.9000           5610.7648
0.9040           5620.3603
0.9080           5629.9538
0.9120           5639.5455
0.9160           5649.1352
0.9200           5658.7231
0.9240           5668.3092
0.9280           5677.8934
0.9320           5687.4760
0.9360           5697.0568
0.9400           5706.6358
0.9440           5716.2132
0.9480           5725.7890
0.9520           5735.3631
0.9560           5744.9356
0.9600           5754.5066
0.9640           5764.0760
0.9680           5773.6438
0.9720           5783.2102
0.9760           5792.7751
0.9800           5802.3386
0.9840           5811.9006
0.9880           5821.4612
0.9920           5831.0204
0.9960           5840.5783
1.0000           5850.1348
1.0040           5859.6900
1.0080           5869.2440
1.0120           5878.7966
1.0160           5888.3480
1.0200           5897.8982
1.0240           5907.4472
1.0280           5916.9949
1.0320           5926.5415
1.0360           5936.0870
1.0400           5945.6313
1.0440           5955.1745
1.0480           5964.7166
1.0520           5974.2576
1.0560           5983.7976
1.0600           5993.3365
1.0640           6002.8745
1.0680           6012.4114
1.0720           6021.9473
1.0760           6031.4822
1.0800           6041.0162
1.0840           6050.5493
1.0880           6060.0814
1.0920           6069.6126
1.0960           6079.1429
1.1000           6088.6724
1.1040           6098.2010
1.1080           6107.7287
1.1120           6117.2556
1.1160           6126.7817
1.1200           6136.3070
1.1240           6145.8315
1.1280           6155.3552
1.1320           6164.8782
1.1360           6174.4004
1.1400           6183.9219
1.1440           6193.4427
1.1480           6202.9627
1.1520           6212.4821
1.1560           6222.0008
1.1600           6231.5188
1.1640           6241.0362
1.1680           6250.5529
1.1720           6260.0690
1.1760           6269.5844
1.1800           6279.0993
1.1840           6288.6135
1.1880           6298.1272
1.1920           6307.6403
1.1960           6317.1528
1.2000           6326.6648
1.2040           6336.1762
1.2080           6345.6871
1.2120           6355.1975
1.2160           6364.7074
1.2200           6374.2167
1.2240           6383.7256
1.2280           6393.2340
1.2320           6402.7419
1.2360           6412.2494
1.2400           6421.7564
1.2440           6431.2630
1.2480           6440.7691
1.2520           6450.2748
1.2560           6459.7801
1.2600           6469.2850
1.2640           6478.7895
1.2680           6488.2936
1.2720           6497.7974
1.2760           6507.3007
1.2800           6516.8037
1.2840           6526.3063
1.2880           6535.8086
1.2920           6545.3106
1.2960           6554.8122
1.3000           6564.3135
1.3040           6573.8145
1.3080           6583.3152
1.3120           6592.8156
1.3160           6602.3157
1.3200           6611.8156
1.3240           6621.3151
1.3280           6630.8144
1.3320           6640.3134
1.3360           6649.8122
1.3400           6659.3107
1.3440           6668.8090
1.3480           6678.3070
1.3520           6687.8048
1.3560           6697.3024
1.3600           6706.7998
1.3640           6716.2970
1.3680           6725.7940
1.3720           6735.2908
1.3760           6744.7874
1.3800           6754.2838
1.3840           6763.7801
1.3880           6773.2762
1.3920           6782.7721
1.3960           6792.2679
1.4000           6801.7635
1.4040           6811.2590
1.4080           6820.7543
1.4120           6830.2495
1.4160           6839.7446
1.4200           6849.2396
1.4240           6858.7344
1.4280           6868.2292
1.4320           6877.7238
1.4360           6887.2184
1.4400           6896.7129
1.4440           6906.2072
1.4480           6915.7015
1.4520           6925.1957
1.4560           6934.6899
1.4600           6944.1840
1.4640           6953.6780
1.4680           6963.1720
1.4720           6972.6659
1.4760           6982.1598
1.4800           6991.6536
1.4840           7001.1474
1.4880           7010.6412
1.4920           7020.1349
1.4960           7029.6286
1.5000           7039.1223
1.5040           7048.6160
1.5080           7058.1097
1.5120           7067.6034
1.5160           7077.0971
1.5200           7086.5908
1.5240           7096.0845
1.5280           7105.5783
1.5320           7115.0720
1.5360           7124.5658
1.5400           7134.0596
1.5440           7143.5534
1.5480           7153.0473
1.5520           7162.5412
1.5560           7172.0352
1.5600           7181.5292
1.5640           7191.0233
1.5680           7200.5174
1.5720           7210.0116
1.5760           7219.5059
1.5800           7229.0002
1.5840           7238.4946
1.5880           7247.9891
1.5920           7257.4837
1.5960           7266.9784
1.6000           7276.4731
1.6040           7285.9679
1.6080           7295.4629
1.6120           7304.9579
1.6160           7314.4531
1.6200           7323.9483
1.6240           7333.4437
1.6280           7342.9392
1.6320           7352.4348
1.6360           7361.9305
1.6400           7371.4264
1.6440           7380.9224
1.6480           7390.4185
1.6520           7399.9148
1.6560           7409.4112
1.6600           7418.9077
1.6640           7428.4044
1.6680           7437.9012
1.6720           7447.3982
1.6760           7456.8954
1.6800           7466.3927
1.6840           7475.8902
1.6880           7485.3879
1.6920           7494.8857
1.6960           7504.3837
1.7000           7513.8819
1.7040           7523.3802
1.7080           7532.8787
1.7120           7542.3775
1.7160           7551.8764
1.7200           7561.3755
1.7240           7570.8748
1.7280           7580.3743
1.7320           7589.8740
1.7360           7599.3739
1.7400           7608.8740
1.7440           7618.3744
1.7480           7627.8749
1.7520           7637.3757
1.7560           7646.8767
1.7600           7656.3779
1.7640           7665.8793
1.7680           7675.3810
1.7720           7684.8828
1.7760           7694.3850
1.7800           7703.8873
1.7840           7713.3899
1.7880           7722.8928
1.7920           7732.3959
1.7960           7741.8992
1.8000           7751.4028
1.8040           7760.9066
1.8080           7770.4107
1.8120           7779.9151
1.8160           7789.4197
1.8200           7798.9246
1.8240           7808.4297
1.8280           7817.9351
1.8320           7827.4408
1.8360           7836.9468
1.8400           7846.4530
1.8440           7855.9595
1.8480           7865.4663
1.8520           7874.9734
1.8560           7884.4808
1.8600           7893.9884
1.8640           7903.4964
1.8680           7913.0046
1.8720           7922.5131
1.8760           7932.0220
1.8800           7941.5311
1.8840           7951.0406
1.8880           7960.5503
1.8920           7970.0604
1.8960           7979.5707
1.9000           7989.0814
1.9040           7998.5924
1.9080           8008.1037
1.9120           8017.6154
1.9160           8027.1273
1.9200           8036.6396
1.9240           8046.1522
1.9280           8055.6652
1.9320           8065.1785
1.9360           8074.6921
1.9400           8084.2060
1.9440           8093.7203
1.9480           8103.2349
1.9520           8112.7499
1.9560           8122.2652
1.9600           8131.7808
1.9640           8141.2969
1.9680           8150.8132
1.9720           8160.3299
1.9760           8169.8470
1.9800           8179.3644
1.9840           8188.8822
1.9880           8198.4003
1.9920           8207.9189
1.9960           8217.4377
2.0000           8226.9570
2.0040           8236.4766
2.0080           8245.9966
2.0120           8255.5170
2.0160           8265.0377
2.0200           8274.5588
2.0240           8284.0803
2.0280           8293.6022
2.0320           8303.1245
2.0360           8312.6471
2.0400           8322.1702
2.0440           8331.6936
2.0480           8341.2174
2.0520           8350.7416
2.0560           8360.2662
2.0600           8369.7913
2.0640           8379.3167
2.0680           8388.8425
2.0720           8398.3687
2.0760           8407.8953
2.0800           8417.4224
2.0840           8426.9498
2.0880           8436.4777
2.0920           8446.0059
2.0960           8455.5346
2.1000           8465.0637
2.1040           8474.5932
2.1080           8484.1232
2.1120           8493.6535
2.1160           8503.1843
2.1200           8512.7155
2.1240           8522.2472
2.1280           8531.7793
2.1320           8541.3118
2.1360           8550.8447
2.1400           8560.3781
2.1440           8569.9119
2.1480           8579.4461
2.1520           8588.9808
2.1560           8598.5160
2.1600           8608.0515
2.1640           8617.5876
2.1680           8627.1240
2.1720           8636.6610
2.1760           8646.1983
2.1800           8655.7361
2.1840           8665.2744
2.1880           8674.8132
2.1920           8684.3524
2.1960           8693.8920
2.2000           8703.4321
2.2040           8712.9727
2.2080           8722.5137
2.2120           8732.0552
2.2160           8741.5972
2.2200           8751.1397
2.2240           8760.6826
2.2280           8770.2260
2.2320           8779.7698
2.2360           8789.3142
2.2400           8798.8590
2.2440           8808.4043
2.2480           8817.9501
2.2520           8827.4963
2.2560           8837.0431
2.2600           8846.5903
2.2640           8856.1380
2.2680           8865.6862
2.2720           8875.2349
2.2760           8884.7841
2.2800           8894.3338
2.2840           8903.8840
2.2880           8913.4346
2.2920           8922.9858
2.2960           8932.5375
2.3000           8942.0897
2.3040           8951.6423
2.3080           8961.1955
2.3120           8970.7492
2.3160           8980.3034
2.3200           8989.8581
2.3240           8999.4133
2.3280           9008.9690
2.3320           9018.5253
2.3360           9028.0820
2.3400           9037.6393
2.3440           9047.1971
2.3480           9056.7554
2.3520           9066.3142
2.3560           9075.8736
2.3600           9085.4335
2.3640           9094.9939
2.3680           9104.5548
2.3720           9114.1163
2.3760           9123.6782
2.3800           9133.2408
2.3840           9142.8038
2.3880           9152.3674
2.3920           9161.9315
2.3960           9171.4962
2.4000           9181.0614
2.4040           9190.6271
2.4080           9200.1934
2.4120           9209.7602
2.4160           9219.3276
2.4200           9228.8955
2.4240           9238.4639
2.4280           9248.0329
2.4320           9257.6025
2.4360           9267.1726
2.4400           9276.7433
2.4440           9286.3145
2.4480           9295.8862
2.4520           9305.4586
2.4560           9315.0314
2.4600           9324.6049
2.4640           9334.1789
2.4680           9343.7534
2.4720           9353.3286
2.4760           9362.9043
2.4800           9372.4805
2.4840           9382.0573
2.4880           9391.6347
2.4920           9401.2127
2.4960           9410.7912
2.5000           9420.3703
2.5040           9429.9500
2.5080           9439.5303
2.5120           9449.1111
2.5160           9458.6925
2.5200           9468.2745
2.5240           9477.8571
2.5280           9487.4402
2.5320           9497.0239
2.5360           9506.6083
2.5400           9516.1932
2.5440           9525.7787
2.5480           9535.3647
2.5520           9544.9514
2.5560           9554.5387
2.5600           9564.1265
2.5640           9573.7150
2.5680           9583.3040
2.5720           9592.8936
2.5760           9602.4839
2.5800           9612.0747
2.5840           9621.6661
2.5880           9631.2582
2.5920           9640.8508
2.5960           9650.4440
2.6000           9660.0379
2.6040           9669.6323
2.6080           9679.2274
2.6120           9688.8231
2.6160           9698.4193
2.6200           9708.0162
2.6240           9717.6137
2.6280           9727.2118
2.6320           9736.8105
2.6360           9746.4099
2.6400           9756.0098
2.6440           9765.6104
2.6480           9775.2116
2.6520           9784.8134
2.6560           9794.4159
2.6600           9804.0189
2.6640           9813.6226
2.6680           9823.2269
2.6720           9832.8319
2.6760           9842.4374
2.6800           9852.0436
2.6840           9861.6504
2.6880           9871.2579
2.6920           9880.8660
2.6960           9890.4747
2.7000           9900.0841
2.7040           9909.6941
2.7080           9919.3047
2.7120           9928.9160
2.7160           9938.5279
2.7200           9948.1404
2.7240           9957.7536
2.7280           9967.3674
2.7320           9976.9819
2.7360           9986.5970
2.7400           9996.2128
2.7440           10005.8292
2.7480           10015.4463
2.7520           10025.0640
2.7560           10034.6823
2.7600           10044.3014
2.7640           10053.9210
2.7680           10063.5414
2.7720           10073.1623
2.7760           10082.7840
2.7800           10092.4063
2.7840           10102.0292
2.7880           10111.6528
2.7920           10121.2771
2.7960           10130.9020
2.8000           10140.5276
2.8040           10150.1539
2.8080           10159.7808
2.8120           10169.4084
2.8160           10179.0367
2.8200           10188.6656
2.8240           10198.2952
2.8280           10207.9255
2.8320           10217.5564
2.8360           10227.1881
2.8400           10236.8204
2.8440           10246.4533
2.8480           10256.0870
2.8520           10265.7213
2.8560           10275.3563
2.8600           10284.9920
2.8640           10294.6283
2.8680           10304.2654
2.8720           10313.9031
2.8760           10323.5415
2.8800           10333.1806
2.8840           10342.8204
2.8880           10352.4609
2.8920           10362.1020
2.8960           10371.7439
2.9000           10381.3864
2.9040           10391.0296
2.9080           10400.6735
2.9120           10410.3181
2.9160           10419.9635
2.9200           10429.6095
2.9240           10439.2562
2.9280           10448.9036
2.9320           10458.5516
2.9360           10468.2004
2.9400           10477.8499
2.9440           10487.5001
2.9480           10497.1510
2.9520           10506.8026
2.9560           10516.4549
2.9600           10526.1080
2.9640           10535.7617
2.9680           10545.4161
2.9720           10555.0713
2.9760           10564.7271
2.9800           10574.3837
2.9840           10584.0409
2.9880           10593.6989
2.9920           10603.3576
2.9960           10613.0170
3.0000           10622.6772
3.0040           10632.3380
3.0080           10641.9996
3.0120           10651.6618
3.0160           10661.3248
3.0200           10670.9886
3.0240           10680.6530
3.0280           10690.3182
3.0320           10699.9841
3.0360           10709.6507
3.0400           10719.3180
3.0440           10728.9861
3.0480           10738.6549
3.0520           10748.3244
3.0560           10757.9947
3.0600           10767.6657
3.0640           10777.3374
3.0680           10787.0099
3.0720           10796.6830
3.0760           10806.3570
3.0800           10816.0316
3.0840           10825.7070
3.0880           10835.3832
3.0920           10845.0600
3.0960           10854.7376
3.1000           10864.4160
3.1040           10874.0951
3.1080           10883.7749
3.1120           10893.4555
3.1160           10903.1368
3.1200           10912.8189
3.1240           10922.5017
3.1280           10932.1852
3.1320           10941.8696
3.1360           10951.5546
3.1400           10961.2404
3.1440           10970.9270
3.1480           10980.6143
3.1520           10990.3024
3.1560           10999.9912
3.1600           11009.6808
3.1640           11019.3711
3.1680           11029.0622
3.1720           11038.7540
3.1760           11048.4466
3.1800           11058.1400
3.1840           11067.8341
3.1880           11077.5290
3.1920           11087.2246
3.1960           11096.9210
3.2000           11106.6182
3.2040           11116.3161
3.2080           11126.0148
3.2120           11135.7143
3.2160           11145.4145
3.2200           11155.1155
3.2240           11164.8173
3.2280           11174.5199
3.2320           11184.2232
3.2360           11193.9273
3.2400           11203.6321
3.2440           11213.3378
3.2480           11223.0442
3.2520           11232.7514
3.2560           11242.4593
3.2600           11252.1681
3.2640           11261.8776
3.2680           11271.5879
3.2720           11281.2990
3.2760           11291.0108
3.2800           11300.7235
3.2840           11310.4369
3.2880           11320.1511
3.2920           11329.8661
3.2960           11339.5819
3.3000           11349.2985
3.3040           11359.0158
3.3080           11368.7340
3.3120           11378.4529
3.3160           11388.1726
3.3200           11397.8931
3.3240           11407.6144
3.3280           11417.3365
3.3320           11427.0594
3.3360           11436.7831
3.3400           11446.5076
3.3440           11456.2329
3.3480           11465.9590
3.3520           11475.6858
3.3560           11485.4135
3.3600           11495.1420
3.3640           11504.8712
3.3680           11514.6013
3.3720           11524.3322
3.3760           11534.0639
3.3800           11543.7964
3.3840           11553.5296
3.3880           11563.2637
3.3920           11572.9986
3.3960           11582.7343
3.4000           11592.4709
3.4040           11602.2082
3.4080           11611.9463
3.4120           11621.6853
3.4160           11631.4250
3.4200           11641.1656
3.4240           11650.9070
3.4280           11660.6492
3.4320           11670.3922
3.4360           11680.1360
3.4400           11689.8807
3.4440           11699.6261
3.4480           11709.3724
3.4520           11719.1195
3.4560           11728.8674
3.4600           11738.6161
3.4640           11748.3657
3.4680           11758.1161
3.4720           11767.8673
3.4760           11777.6193
3.4800           11787.3722
3.4840           11797.1259
3.4880           11806.8804
3.4920           11816.6357
3.4960           11826.3919
3.5000           11836.1489
3.5040           11845.9067
3.5080           11855.6654
3.5120           11865.4248
3.5160           11875.1852
3.5200           11884.9463
3.5240           11894.7083
3.5280           11904.4711
3.5320           11914.2348
3.5360           11923.9993
3.5400           11933.7646
3.5440           11943.5307
3.5480           11953.2978
3.5520           11963.0656
3.5560           11972.8343
3.5600           11982.6038
3.5640           11992.3742
3.5680           12002.1454
3.5720           12011.9174
3.5760           12021.6903
3.5800           12031.4641
3.5840           12041.2387
3.5880           12051.0141
3.5920           12060.7904
3.5960           12070.5675
3.6000           12080.3455
3.6040           12090.1243
3.6080           12099.9040
3.6120           12109.6845
3.6160           12119.4659
3.6200           12129.2482
3.6240           12139.0313
3.6280           12148.8152
3.6320           12158.6000
3.6360           12168.3857
3.6400           12178.1722
3.6440           12187.9595
3.6480           12197.7478
3.6520           12207.5369
3.6560           12217.3268
3.6600           12227.1176
3.6640           12236.9093
3.6680           12246.7018
3.6720           12256.4952
3.6760           12266.2895
3.6800           12276.0846
3.6840           12285.8806
3.6880           12295.6775
3.6920           12305.4752
3.6960           12315.2738
3.7000           12325.0732
3.7040           12334.8736
3.7080           12344.6748
3.7120           12354.4768
3.7160           12364.2798
3.7200           12374.0836
3.7240           12383.8883
3.7280           12393.6938
3.7320           12403.5002
3.7360           12413.3076
3.7400           12423.1157
3.7440           12432.9248
3.7480           12442.7347
3.7520           12452.5455
3.7560           12462.3572
3.7600           12472.1698
3.7640           12481.9833
3.7680           12491.7976
3.7720           12501.6128
3.7760           12511.4289
3.7800           12521.2459
3.7840           12531.0638
3.7880           12540.8825
3.7920           12550.7021
3.7960           12560.5227
3.8000           12570.3441
3.8040           12580.1664
3.8080           12589.9896
3.8120           12599.8136
3.8160           12609.6386
3.8200           12619.4644
3.8240           12629.2912
3.8280           12639.1188
3.8320           12648.9474
3.8360           12658.7768
3.8400           12668.6071
3.8440           12678.4383
3.8480           12688.2704
3.8520           12698.1034
3.8560           12707.9373
3.8600           12717.7721
3.8640           12727.6078
3.8680           12737.4444
3.8720           12747.2819
3.8760           12757.1203
3.8800           12766.9596
3.8840           12776.7998
3.8880           12786.6409
3.8920           12796.4829
3.8960           12806.3258
3.9000           12816.1696
3.9040           12826.0143
3.9080           12835.8600
3.9120           12845.7065
3.9160           12855.5539
3.9200           12865.4023
3.9240           12875.2515
3.9280           12885.1017
3.9320           12894.9528
3.9360           12904.8048
3.9400           12914.6577
3.9440           12924.5115
3.9480           12934.3662
3.9520           12944.2218
3.9560           12954.0784
3.9600           12963.9359
3.9640           12973.7942
3.9680           12983.6535
3.9720           12993.5138
3.9760           13003.3749
3.9800           13013.2369
3.9840           13023.0999
3.9880           13032.9638
3.9920           13042.8286
3.9960           13052.6944
4.0000           13062.5610
4.0040           13072.4286
4.0080           13082.2971
4.0120           13092.1665
4.0160           13102.0369
4.0200           13111.9081
4.0240           13121.7803
4.0280           13131.6535
4.0320           13141.5275
4.0360           13151.4025
4.0400           13161.2784
4.0440           13171.1553
4.0480           13181.0330
4.0520           13190.9117
4.0560           13200.7914
4.0600           13210.6719
4.0640           13220.5534
4.0680           13230.4359
4.0720           13240.3192
4.0760           13250.2035
4.0800           13260.0887
4.0840           13269.9749
4.0880           13279.8620
4.0920           13289.7501
4.0960           13299.6390
4.1000           13309.5290
4.1040           13319.4198
4.1080           13329.3116
4.1120           13339.2044
4.1160           13349.0980
4.1200           13358.9927
4.1240           13368.8882
4.1280           13378.7847
4.1320           13388.6822
4.1360           13398.5806
4.1400           13408.4799
4.1440           13418.3802
4.1480           13428.2814
4.1520           13438.1836
4.1560           13448.0867
4.1600           13457.9908
4.1640           13467.8958
4.1680           13477.8018
4.1720           13487.7087
4.1760           13497.6166
4.1800           13507.5254
4.1840           13517.4352
4.1880           13527.3459
4.1920           13537.2576
4.1960           13547.1702
4.2000           13557.0838
4.2040           13566.9983
4.2080           13576.9138
4.2120           13586.8303
4.2160           13596.7477
4.2200           13606.6661
4.2240           13616.5854
4.2280           13626.5057
4.2320           13636.4269
4.2360           13646.3491
4.2400           13656.2723
4.2440           13666.1964
4.2480           13676.1215
4.2520           13686.0476
4.2560           13695.9746
4.2600           13705.9025
4.2640           13715.8315
4.2680           13725.7614
4.2720           13735.6923
4.2760           13745.6241
4.2800           13755.5569
4.2840           13765.4907
4.2880           13775.4254
4.2920           13785.3611
4.2960           13795.2978
4.3000           13805.2354
4.3040           13815.1740
4.3080           13825.1136
4.3120           13835.0542
4.3160           13844.9957
4.3200           13854.9382
4.3240           13864.8817
4.3280           13874.8261
4.3320           13884.7716
4.3360           13894.7180
4.3400           13904.6653
4.3440           13914.6137
4.3480           13924.5630
4.3520           13934.5133
4.3560           13944.4646
4.3600           13954.4169
4.3640           13964.3701
4.3680           13974.3243
4.3720           13984.2795
4.3760           13994.2357
4.3800           14004.1928
4.3840           14014.1510
4.3880           14024.1101
4.3920           14034.0702
4.3960           14044.0313
4.4000           14053.9934
4.4040           14063.9564
4.4080           14073.9205
4.4120           14083.8855
4.4160           14093.8515
4.4200           14103.8186
4.4240           14113.7865
4.4280           14123.7555
4.4320           14133.7255
4.4360           14143.6965
4.4400           14153.6684
4.4440           14163.6413
4.4480           14173.6153
4.4520           14183.5902
4.4560           14193.5661
4.4600           14203.5430
4.4640           14213.5209
4.4680           14223.4998
4.4720           14233.4797
4.4760           14243.4606
4.4800           14253.4425
4.4840           14263.4253
4.4880           14273.4092
4.4920           14283.3941
4.4960           14293.3800
4.5000           14303.3668
4.5040           14313.3547
4.5080           14323.3435
4.5120           14333.3334
4.5160           14343.3243
4.5200           14353.3161
4.5240           14363.3090
4.5280           14373.3029
4.5320           14383.2977
4.5360           14393.2936
4.5400           14403.2905
4.5440           14413.2884
4.5480           14423.2873
4.5520           14433.2872
4.5560           14443.2881
4.5600           14453.2900
4.5640           14463.2929
4.5680           14473.2968
4.5720           14483.3017
4.5760           14493.3077
4.5800           14503.3146
4.5840           14513.3226
4.5880           14523.3315
4.5920           14533.3415
4.5960           14543.3525
4.6000           14553.3645
4.6040           14563.3775
4.6080           14573.3915
4.6120           14583.4066
4.6160           14593.4226
4.6200           14603.4397
4.6240           14613.4578
4.6280           14623.4769
4.6320           14633.4970
4.6360           14643.5181
4.6400           14653.5402
4.6440           14663.5634
4.6480           14673.5876
4.6520           14683.6128
4.6560           14693.6390
4.6600           14703.6662
4.6640           14713.6945
4.6680           14723.7238
4.6720           14733.7541
4.6760           14743.7854
4.6800           14753.8177
4.6840           14763.8511
4.6880           14773.8855
4.6920           14783.9209
4.6960           14793.9573
4.7000           14803.9948
4.7040           14814.0333
4.7080           14824.0728
4.7120           14834.1133
4.7160           14844.1549
4.7200           14854.1975
4.7240           14864.2411
4.7280           14874.2858
4.7320           14884.3314
4.7360           14894.3781
4.7400           14904.4259
4.7440           14914.4746
4.7480           14924.5244
4.7520           14934.5753
4.7560           14944.6271
4.7600           14954.6800
4.7640           14964.7339
4.7680           14974.7889
4.7720           14984.8449
4.7760           14994.9019
4.7800           15004.9600
4.7840           15015.0190
4.7880           15025.0792
4.7920           15035.1403
4.7960           15045.2025
4.8000           15055.2658
4.8040           15065.3301
4.8080           15075.3954
4.8120           15085.4617
4.8160           15095.5291
4.8200           15105.5975
4.8240           15115.6670
4.8280           15125.7375
4.8320           15135.8091
4.8360           15145.8816
4.8400           15155.9553
4.8440           15166.0300
4.8480           15176.1057
4.8520           15186.1824
4.8560           15196.2602
4.8600           15206.3391
4.8640           15216.4190
4.8680           15226.4999
4.8720           15236.5819
4.8760           15246.6649
4.8800           15256.7490
4.8840           15266.8341
4.8880           15276.9203
4.8920           15287.0075
4.8960           15297.0958
4.9000           15307.1851
4.9040           15317.2754
4.9080           15327.3668
4.9120           15337.4593
4.9160           15347.5528
4.9200           15357.6474
4.9240           15367.7430
4.9280           15377.8397
4.9320           15387.9374
4.9360           15398.0361
4.9400           15408.1360
4.9440           15418.2368
4.9480           15428.3388
4.9520           15438.4418
4.9560           15448.5458
4.9600           15458.6509
4.9640           15468.7570
4.9680           15478.8643
4.9720           15488.9725
4.9760           15499.0818
4.9800           15509.1922
4.9840           15519.3037
4.9880           15529.4162
4.9920           15539.5297
4.9960           15549.6443
4.9920           15359.7152
4.9880           15169.8115
4.9840           14979.9333
4.9800           14790.0804
4.9760           14600.2529
4.9720           14410.4508
4.9680           14220.6741
4.9640           14030.9227
4.9600           13841.1967
4.9560           13651.4960
4.9520           13461.8206
4.9480           13272.1705
4.9440           13082.5457
4.9400           12892.9463
4.9360           12703.3720
4.9320           12513.8231
4.9280           12324.2994
4.9240           12134.8010
4.9200           11945.3278
4.9160           11755.8798
4.9120           11566.4570
4.9080           11377.0595
4.9040           11187.6871
4.9000           10998.3399
4.8960           10809.0178
4.8920           10619.7209
4.8880           10430.4492
4.8840           10241.2026
4.8800           10051.9811
4.8760           9862.7847
4.8720           9673.6135
4.8680           9484.4673
4.8640           9295.3462
4.8600           9106.2501
4.8560           8917.1791
4.8520           8728.1332
4.8480           8539.1122
4.8440           8350.1163
4.8400           8161.1455
4.8360           7972.1996
4.8320           7783.2786
4.8280           7594.3827
4.8240           7405.5117
4.8200           7216.6657
4.8160           7027.8446
4.8120           6839.0485
4.8080           6650.2773
4.8040           6461.5309
4.8000           6272.8095
4.7960           6084.1130
4.7920           5895.4413
4.7880           5706.7945
4.7840           5518.1725
4.7800           5329.5754
4.7760           5141.0031
4.7720           4952.4556
4.7680           4763.9329
4.7640           4575.4350
4.7600           4386.9619
4.7560           4198.5136
4.7520           4010.0900
4.7480           3821.6911
4.7440           3633.3170
4.7400           3444.9677
4.7360           3256.6430
4.7320           3068.3430
4.7280           2880.0677
4.7240           2691.8171
4.7200           2503.5912
4.7160           2315.3899
4.7120           2127.2133
4.7080           1939.0612
4.7040           1750.9338
4.7000           1562.8310
4.6960           1374.7528
4.6920           1186.6992
4.6880           998.6702
4.6840           810.6657
4.6800           622.6858
4.6760           434.7304
4.6720           246.7995
4.6680           58.8932
4.6640           -128.9887
