# Horiz displ, [mm]   Reaction force, [N]
0.0000           0.0000
0.0040           179.4744
0.0080           358.9485
0.0120           538.4223
0.0160           717.8959
0.0200           897.3691
0.0240           1076.8420
0.0280           1256.3146
0.0320           1435.7869
0.0360           1615.2589
0.0400           1794.7305
0.0440           1974.2017
0.0480           2141.1867
0.0520           2296.8981
0.0560           2448.3568
0.0600           2589.7716
0.0640           2711.2695
0.0680           2814.8712
0.0720           2902.0089
0.0760           2981.4216
0.0800           3054.8485
0.0840           3120.2647
0.0880           3179.8194
0.0920           3233.9987
0.0960           3284.9846
0.1000           3332.4053
0.1040           3376.4983
0.1080           3415.5950
0.1120           3450.3283
0.1160           3479.3392
0.1200           3505.2084
0.1240           3529.1925
0.1280           3550.5687
0.1320           3569.1176
0.1360           3586.2914
0.1400           3602.5024
0.1440           3618.3143
0.1480           3633.7820
0.1520           3649.0180
0.1560           3663.9973
0.1600           3678.8047
0.1640           3693.3998
0.1680           3707.7241
0.1720           3721.6518
0.1760           3735.3603
0.1800           3748.9594
0.1840           3762.3164
0.1880           3775.3806
0.1920           3788.3479
0.1960           3801.1242
0.2000           3813.7395
0.2040           3826.2729
0.2080           3838.6033
0.2120           3850.8114
0.2160           3862.9417
0.2200           3875.0267
0.2240           3887.0689
0.2280           3899.0706
0.2320           3911.0112
0.2360           3922.8762
0.2400           3934.6278
0.2440           3946.3087
0.2480           3957.9432
0.2520           3969.4957
0.2560           3981.0163
0.2600           3992.5086
0.2640           4003.9670
0.2680           4015.2631
0.2720           4026.4945
0.2760           4037.7013
0.2800           4048.8845
0.2840           4060.0452
0.2880           4071.1845
0.2920           4082.3032
0.2960           4093.4024
0.3000           4104.4701
0.3040           4115.4774
0.3080           4126.4632
0.3120           4137.4105
0.3160           4148.3421
0.3200           4159.2524
0.3240           4170.1380
0.3280           4181.0094
0.3320           4191.8457
0.3360           4202.6619
0.3400           4213.4432
0.3440           4224.1800
0.3480           4234.9034
0.3520           4245.6143
0.3560           4256.2866
0.3600           4266.8981
0.3640           4277.4966
0.3680           4288.0827
0.3720           4298.6568
0.3760           4309.2191
0.3800           4319.7702
0.3840           4330.2976
0.3880           4340.8022
0.3920           4351.2756
0.3960           4361.7230
0.4000           4372.1464
0.4040           4382.5461
0.4080           4392.9169
0.4120           4403.2781
0.4160           4413.6267
0.4200           4423.9640
0.4240           4434.2903
0.4280           4444.6058
0.4320           4454.9010
0.4360           4465.1806
0.4400           4475.4497
0.4440           4485.7084
0.4480           4495.9570
0.4520           4506.1954
0.4560           4516.4239
0.4600           4526.6427
0.4640           4536.8519
0.4680           4547.0490
0.4720           4557.2250
0.4760           4567.3913
0.4800           4577.5483
0.4840           4587.6959
0.4880           4597.8344
0.4920           4607.9638
0.4960           4618.0844
0.5000           4628.1961
0.5040           4638.2992
0.5080           4648.3938
0.5120           4658.4798
0.5160           4668.5576
0.5200           4678.6271
0.5240           4688.6862
0.5280           4698.7280
0.5320           4708.7617
0.5360           4718.7874
0.5400           4728.8052
0.5440           4738.8152
0.5480           4748.8175
0.5520           4758.8122
0.5560           4768.7994
0.5600           4778.7792
0.5640           4788.7517
0.5680           4798.7170
0.5720           4808.6752
0.5760           4818.6264
0.5800           4828.5706
0.5840           4838.5079
0.5880           4848.4385
0.5920           4858.3624
0.5960           4868.2798
0.6000           4878.1906
0.6040           4888.0949
0.6080           4897.9930
0.6120           4907.8848
0.6160           4917.7704
0.6200           4927.6498
0.6240           4937.5233
0.6280           4947.3908
0.6320           4957.2525
0.6360           4967.1083
0.6400           4976.9585
0.6440           4986.8030
0.6480           4996.6419
0.6520           5006.4753
0.6560           5016.3034
0.6600           5026.1260
0.6640           5035.9434
0.6680           5045.7556
0.6720           5055.5626
0.6760           5065.3646
0.6800           5075.1615
0.6840           5084.9536
0.6880           5094.7407
0.6920           5104.5231
0.6960           5114.3007
0.7000           5124.0737
0.7040           5133.8420
0.7080           5143.6059
0.7120           5153.3652
0.7160           5163.1201
0.7200           5172.8707
0.7240           5182.6170
0.7280           5192.3590
0.7320           5202.0969
0.7360           5211.8307
0.7400           5221.5604
0.7440           5231.2861
0.7480           5241.0079
0.7520           5250.7258
0.7560           5260.4398
0.7600           5270.1501
0.7640           5279.8567
0.7680           5289.5597
0.7720           5299.2590
0.7760           5308.9548
0.7800           5318.6470
0.7840           5328.3359
0.7880           5338.0213
0.7920           5347.7034
0.7960           5357.3822
0.8000           5367.0577
0.8040           5376.7300
0.8080           5386.3992
0.8120           5396.0653
0.8160           5405.7283
0.8200           5415.3884
0.8240           5425.0454
0.8280           5434.6996
0.8320           5444.3508
0.8360           5453.9993
0.8400           5463.6449
0.8440           5473.2878
0.8480           5482.9280
0.8520           5492.5655
0.8560           5502.2005
0.8600           5511.8328
0.8640           5521.4626
0.8680           5531.0899
0.8720           5540.7148
0.8760           5550.3372
0.8800           5559.9572
0.8840           5569.5749
0.8880           5579.1903
0.8920           5588.8035
0.8960           5598.4143
0.9000           5608.0230
0.9040           5617.6295
0.9080           5627.2339
0.9120           5636.8362
0.9160           5646.4364
0.9200           5656.0346
0.9240           5665.6308
0.9280           5675.2250
0.9320           5684.8173
0.9360           5694.4076
0.9400           5703.9961
0.9440           5713.5828
0.9480           5723.1676
0.9520           5732.7507
0.9560           5742.3320
0.9600           5751.9116
0.9640           5761.4894
0.9680           5771.0656
0.9720           5780.6402
0.9760           5790.2131
0.9800           5799.7844
0.9840           5809.3542
0.9880           5818.9224
0.9920           5828.4891
0.9960           5838.0543
1.0000           5847.6181
1.0040           5857.1804
1.0080           5866.7412
1.0120           5876.3007
1.0160           5885.8588
1.0200           5895.4156
1.0240           5904.9710
1.0280           5914.5252
1.0320           5924.0780
1.0360           5933.6296
1.0400           5943.1799
1.0440           5952.7290
1.0480           5962.2769
1.0520           5971.8236
1.0560           5981.3692
1.0600           5990.9136
1.0640           6000.4569
1.0680           6009.9991
1.0720           6019.5402
1.0760           6029.0803
1.0800           6038.6193
1.0840           6048.1572
1.0880           6057.6942
1.0920           6067.2301
1.0960           6076.7651
1.1000           6086.2991
1.1040           6095.8321
1.1080           6105.3643
1.1120           6114.8955
1.1160           6124.4258
1.1200           6133.9552
1.1240           6143.4838
1.1280           6153.0115
1.1320           6162.5384
1.1360           6172.0644
1.1400           6181.5897
1.1440           6191.1141
1.1480           6200.6378
1.1520           6210.1607
1.1560           6219.6828
1.1600           6229.2042
1.1640           6238.7249
1.1680           6248.2449
1.1720           6257.7642
1.1760           6267.2828
1.1800           6276.8007
1.1840           6286.3180
1.1880           6295.8346
1.1920           6305.3505
1.1960           6314.8659
1.2000           6324.3806
1.2040           6333.8947
1.2080           6343.4083
1.2120           6352.9212
1.2160           6362.4336
1.2200           6371.9455
1.2240           6381.4568
1.2280           6390.9675
1.2320           6400.4778
1.2360           6409.9875
1.2400           6419.4967
1.2440           6429.0054
1.2480           6438.5137
1.2520           6448.0214
1.2560           6457.5287
1.2600           6467.0356
1.2640           6476.5420
1.2680           6486.0479
1.2720           6495.5535
1.2760           6505.0586
1.2800           6514.5633
1.2840           6524.0676
1.2880           6533.5715
1.2920           6543.0751
1.2960           6552.5783
1.3000           6562.0811
1.3040           6571.5835
1.3080           6581.0856
1.3120           6590.5874
1.3160           6600.0888
1.3200           6609.5899
1.3240           6619.0907
1.3280           6628.5912
1.3320           6638.0914
1.3360           6647.5913
1.3400           6657.0909
1.3440           6666.5903
1.3480           6676.0893
1.3520           6685.5882
1.3560           6695.0867
1.3600           6704.5850
1.3640           6714.0831
1.3680           6723.5809
1.3720           6733.0785
1.3760           6742.5759
1.3800           6752.0731
1.3840           6761.5700
1.3880           6771.0668
1.3920           6780.5633
1.3960           6790.0597
1.4000           6799.5559
1.4040           6809.0520
1.4080           6818.5478
1.4120           6828.0435
1.4160           6837.5391
1.4200           6847.0344
1.4240           6856.5297
1.4280           6866.0248
1.4320           6875.5198
1.4360           6885.0146
1.4400           6894.5094
1.4440           6904.0040
1.4480           6913.4985
1.4520           6922.9929
1.4560           6932.4872
1.4600           6941.9814
1.4640           6951.4755
1.4680           6960.9696
1.4720           6970.4636
1.4760           6979.9575
1.4800           6989.4513
1.4840           6998.9451
1.4880           7008.4388
1.4920           7017.9325
1.4960           7027.4261
1.5000           7036.9197
1.5040           7046.4132
1.5080           7055.9067
1.5120           7065.4002
1.5160           7074.8937
1.5200           7084.3871
1.5240           7093.8806
1.5280           7103.3740
1.5320           7112.8674
1.5360           7122.3609
1.5400           7131.8543
1.5440           7141.3478
1.5480           7150.8412
1.5520           7160.3347
1.5560           7169.8283
1.5600           7179.3218
1.5640           7188.8154
1.5680           7198.3090
1.5720           7207.8026
1.5760           7217.2963
1.5800           7226.7901
1.5840           7236.2839
1.5880           7245.7778
1.5920           7255.2717
1.5960           7264.7657
1.6000           7274.2597
1.6040           7283.7539
1.6080           7293.2481
1.6120           7302.7424
1.6160           7312.2368
1.6200           7321.7313
1.6240           7331.2258
1.6280           7340.7205
1.6320           7350.2153
1.6360           7359.7101
1.6400           7369.2051
1.6440           7378.7002
1.6480           7388.1954
1.6520           7397.6907
1.6560           7407.1862
1.6600           7416.6818
1.6640           7426.1775
1.6680           7435.6733
1.6720           7445.1693
1.6760           7454.6654
1.6800           7464.1617
1.6840           7473.6581
1.6880           7483.1547
1.6920           7492.6514
1.6960           7502.1483
1.7000           7511.6453
1.7040           7521.1425
1.7080           7530.6399
1.7120           7540.1374
1.7160           7549.6351
1.7200           7559.1330
1.7240           7568.6311
1.7280           7578.1293
1.7320           7587.6278
1.7360           7597.1264
1.7400           7606.6252
1.7440           7616.1242
1.7480           7625.6234
1.7520           7635.1228
1.7560           7644.6225
1.7600           7654.1223
1.7640           7663.6223
1.7680           7673.1226
1.7720           7682.6231
1.7760           7692.1237
1.7800           7701.6247
1.7840           7711.1258
1.7880           7720.6272
1.7920           7730.1287
1.7960           7739.6306
1.8000           7749.1326
1.8040           7758.6349
1.8080           7768.1375
1.8120           7777.6403
1.8160           7787.1433
1.8200           7796.6466
1.8240           7806.1501
1.8280           7815.6539
1.8320           7825.1580
1.8360           7834.6623
1.8400           7844.1669
1.8440           7853.6717
1.8480           7863.1768
1.8520           7872.6822
1.8560           7882.1879
1.8600           7891.6938
1.8640           7901.2000
1.8680           7910.7065
1.8720           7920.2133
1.8760           7929.7204
1.8800           7939.2277
1.8840           7948.7354
1.8880           7958.2433
1.8920           7967.7516
1.8960           7977.2601
1.9000           7986.7689
1.9040           7996.2781
1.9080           8005.7875
1.9120           8015.2973
1.9160           8024.8073
1.9200           8034.3177
1.9240           8043.8284
1.9280           8053.3394
1.9320           8062.8507
1.9360           8072.3624
1.9400           8081.8744
1.9440           8091.3867
1.9480           8100.8993
1.9520           8110.4123
1.9560           8119.9256
1.9600           8129.4392
1.9640           8138.9532
1.9680           8148.4675
1.9720           8157.9821
1.9760           8167.4971
1.9800           8177.0125
1.9840           8186.5282
1.9880           8196.0442
1.9920           8205.5606
1.9960           8215.0774
2.0000           8224.5945
2.0040           8234.1119
2.0080           8243.6298
2.0120           8253.1480
2.0160           8262.6665
2.0200           8272.1855
2.0240           8281.7048
2.0280           8291.2244
2.0320           8300.7445
2.0360           8310.2649
2.0400           8319.7857
2.0440           8329.3069
2.0480           8338.8285
2.0520           8348.3504
2.0560           8357.8727
2.0600           8367.3955
2.0640           8376.9186
2.0680           8386.4421
2.0720           8395.9660
2.0760           8405.4903
2.0800           8415.0150
2.0840           8424.5401
2.0880           8434.0656
2.0920           8443.5915
2.0960           8453.1178
2.1000           8462.6445
2.1040           8472.1716
2.1080           8481.6991
2.1120           8491.2271
2.1160           8500.7554
2.1200           8510.2842
2.1240           8519.8134
2.1280           8529.3430
2.1320           8538.8731
2.1360           8548.4035
2.1400           8557.9344
2.1440           8567.4657
2.1480           8576.9975
2.1520           8586.5297
2.1560           8596.0623
2.1600           8605.5953
2.1640           8615.1288
2.1680           8624.6627
2.1720           8634.1971
2.1760           8643.7319
2.1800           8653.2671
2.1840           8662.8028
2.1880           8672.3390
2.1920           8681.8756
2.1960           8691.4126
2.2000           8700.9501
2.2040           8710.4881
2.2080           8720.0265
2.2120           8729.5653
2.2160           8739.1046
2.2200           8748.6444
2.2240           8758.1847
2.2280           8767.7254
2.2320           8777.2666
2.2360           8786.8082
2.2400           8796.3503
2.2440           8805.8929
2.2480           8815.4359
2.2520           8824.9795
2.2560           8834.5235
2.2600           8844.0680
2.2640           8853.6129
2.2680           8863.1584
2.2720           8872.7043
2.2760           8882.2507
2.2800           8891.7976
2.2840           8901.3450
2.2880           8910.8929
2.2920           8920.4412
2.2960           8929.9901
2.3000           8939.5394
2.3040           8949.0892
2.3080           8958.6396
2.3120           8968.1904
2.3160           8977.7418
2.3200           8987.2936
2.3240           8996.8459
2.3280           9006.3988
2.3320           9015.9521
2.3360           9025.5060
2.3400           9035.0603
2.3440           9044.6152
2.3480           9054.1706
2.3520           9063.7265
2.3560           9073.2829
2.3600           9082.8398
2.3640           9092.3973
2.3680           9101.9552
2.3720           9111.5137
2.3760           9121.0727
2.3800           9130.6323
2.3840           9140.1923
2.3880           9149.7529
2.3920           9159.3140
2.3960           9168.8757
2.4000           9178.4378
2.4040           9188.0006
2.4080           9197.5638
2.4120           9207.1276
2.4160           9216.6919
2.4200           9226.2567
2.4240           9235.8221
2.4280           9245.3880
2.4320           9254.9545
2.4360           9264.5215
2.4400           9274.0891
2.4440           9283.6572
2.4480           9293.2259
2.4520           9302.7951
2.4560           9312.3648
2.4600           9321.9351
2.4640           9331.5060
2.4680           9341.0774
2.4720           9350.6494
2.4760           9360.2219
2.4800           9369.7950
2.4840           9379.3686
2.4880           9388.9428
2.4920           9398.5176
2.4960           9408.0929
2.5000           9417.6688
2.5040           9427.2453
2.5080           9436.8223
2.5120           9446.4000
2.5160           9455.9781
2.5200           9465.5569
2.5240           9475.1362
2.5280           9484.7161
2.5320           9494.2966
2.5360           9503.8776
2.5400           9513.4593
2.5440           9523.0415
2.5480           9532.6243
2.5520           9542.2076
2.5560           9551.7916
2.5600           9561.3762
2.5640           9570.9613
2.5680           9580.5470
2.5720           9590.1333
2.5760           9599.7202
2.5800           9609.3077
2.5840           9618.8958
2.5880           9628.4845
2.5920           9638.0737
2.5960           9647.6636
2.6000           9657.2541
2.6040           9666.8451
2.6080           9676.4368
2.6120           9686.0291
2.6160           9695.6220
2.6200           9705.2154
2.6240           9714.8095
2.6280           9724.4042
2.6320           9733.9995
2.6360           9743.5954
2.6400           9753.1919
2.6440           9762.7891
2.6480           9772.3868
2.6520           9781.9852
2.6560           9791.5841
2.6600           9801.1837
2.6640           9810.7839
2.6680           9820.3848
2.6720           9829.9862
2.6760           9839.5883
2.6800           9849.1910
2.6840           9858.7943
2.6880           9868.3982
2.6920           9878.0028
2.6960           9887.6080
2.7000           9897.2138
2.7040           9906.8202
2.7080           9916.4273
2.7120           9926.0350
2.7160           9935.6434
2.7200           9945.2524
2.7240           9954.8620
2.7280           9964.4722
2.7320           9974.0831
2.7360           9983.6946
2.7400           9993.3068
2.7440           10002.9196
2.7480           10012.5331
2.7520           10022.1472
2.7560           10031.7619
2.7600           10041.3773
2.7640           10050.9933
2.7680           10060.6100
2.7720           10070.2274
2.7760           10079.8453
2.7800           10089.4640
2.7840           10099.0833
2.7880           10108.7032
2.7920           10118.3238
2.7960           10127.9451
2.8000           10137.5670
2.8040           10147.1895
2.8080           10156.8128
2.8120           10166.4366
2.8160           10176.0612
2.8200           10185.6864
2.8240           10195.3123
2.8280           10204.9388
2.8320           10214.5660
2.8360           10224.1939
2.8400           10233.8225
2.8440           10243.4517
2.8480           10253.0815
2.8520           10262.7121
2.8560           10272.3433
2.8600           10281.9752
2.8640           10291.6078
2.8680           10301.2411
2.8720           10310.8750
2.8760           10320.5096
2.8800           10330.1449
2.8840           10339.7808
2.8880           10349.4175
2.8920           10359.0548
2.8960           10368.6928
2.9000           10378.3315
2.9040           10387.9709
2.9080           10397.6110
2.9120           10407.2518
2.9160           10416.8932
2.9200           10426.5353
2.9240           10436.1782
2.9280           10445.8217
2.9320           10455.4659
2.9360           10465.1108
2.9400           10474.7564
2.9440           10484.4027
2.9480           10494.0497
2.9520           10503.6974
2.9560           10513.3458
2.9600           10522.9949
2.9640           10532.6447
2.9680           10542.2951
2.9720           10551.9463
2.9760           10561.5983
2.9800           10571.2509
2.9840           10580.9042
2.9880           10590.5582
2.9920           10600.2129
2.9960           10609.8684
3.0000           10619.5245
3.0040           10629.1814
3.0080           10638.8389
3.0120           10648.4972
3.0160           10658.1562
3.0200           10667.8159
3.0240           10677.4764
3.0280           10687.1375
3.0320           10696.7994
3.0360           10706.4620
3.0400           10716.1253
3.0440           10725.7893
3.0480           10735.4541
3.0520           10745.1196
3.0560           10754.7858
3.0600           10764.4527
3.0640           10774.1203
3.0680           10783.7887
3.0720           10793.4578
3.0760           10803.1277
3.0800           10812.7982
3.0840           10822.4695
3.0880           10832.1416
3.0920           10841.8143
3.0960           10851.4878
3.1000           10861.1620
3.1040           10870.8370
3.1080           10880.5127
3.1120           10890.1892
3.1160           10899.8663
3.1200           10909.5443
3.1240           10919.2229
3.1280           10928.9023
3.1320           10938.5825
3.1360           10948.2634
3.1400           10957.9450
3.1440           10967.6274
3.1480           10977.3105
3.1520           10986.9944
3.1560           10996.6790
3.1600           11006.3644
3.1640           11016.0505
3.1680           11025.7374
3.1720           11035.4250
3.1760           11045.1134
3.1800           11054.8025
3.1840           11064.4924
3.1880           11074.1831
3.1920           11083.8745
3.1960           11093.5666
3.2000           11103.2596
3.2040           11112.9532
3.2080           11122.6477
3.2120           11132.3429
3.2160           11142.0389
3.2200           11151.7356
3.2240           11161.4331
3.2280           11171.1313
3.2320           11180.8303
3.2360           11190.5301
3.2400           11200.2307
3.2440           11209.9320
3.2480           11219.6341
3.2520           11229.3370
3.2560           11239.0406
3.2600           11248.7450
3.2640           11258.4502
3.2680           11268.1562
3.2720           11277.8629
3.2760           11287.5704
3.2800           11297.2787
3.2840           11306.9878
3.2880           11316.6976
3.2920           11326.4082
3.2960           11336.1196
3.3000           11345.8318
3.3040           11355.5448
3.3080           11365.2585
3.3120           11374.9731
3.3160           11384.6884
3.3200           11394.4045
3.3240           11404.1214
3.3280           11413.8391
3.3320           11423.5575
3.3360           11433.2768
3.3400           11442.9968
3.3440           11452.7177
3.3480           11462.4393
3.3520           11472.1617
3.3560           11481.8850
3.3600           11491.6090
3.3640           11501.3338
3.3680           11511.0594
3.3720           11520.7858
3.3760           11530.5130
3.3800           11540.2410
3.3840           11549.9698
3.3880           11559.6994
3.3920           11569.4298
3.3960           11579.1610
3.4000           11588.8930
3.4040           11598.6258
3.4080           11608.3594
3.4120           11618.0938
3.4160           11627.8290
3.4200           11637.5651
3.4240           11647.3019
3.4280           11657.0396
3.4320           11666.7780
3.4360           11676.5173
3.4400           11686.2574
3.4440           11695.9983
3.4480           11705.7400
3.4520           11715.4825
3.4560           11725.2258
3.4600           11734.9700
3.4640           11744.7150
3.4680           11754.4608
3.4720           11764.2074
3.4760           11773.9548
3.4800           11783.7030
3.4840           11793.4521
3.4880           11803.2020
3.4920           11812.9527
3.4960           11822.7042
3.5000           11832.4566
3.5040           11842.2098
3.5080           11851.9638
3.5120           11861.7186
3.5160           11871.4743
3.5200           11881.2307
3.5240           11890.9881
3.5280           11900.7462
3.5320           11910.5052
3.5360           11920.2650
3.5400           11930.0256
3.5440           11939.7871
3.5480           11949.5494
3.5520           11959.3126
3.5560           11969.0765
3.5600           11978.8414
3.5640           11988.6070
3.5680           11998.3735
3.5720           12008.1408
3.5760           12017.9090
3.5800           12027.6780
3.5840           12037.4479
3.5880           12047.2185
3.5920           12056.9901
3.5960           12066.7625
3.6000           12076.5357
3.6040           12086.3097
3.6080           12096.0847
3.6120           12105.8604
3.6160           12115.6370
3.6200           12125.4145
3.6240           12135.1928
3.6280           12144.9719
3.6320           12154.7519
3.6360           12164.5328
3.6400           12174.3145
3.6440           12184.0970
3.6480           12193.8804
3.6520           12203.6647
3.6560           12213.4498
3.6600           12223.2358
3.6640           12233.0226
3.6680           12242.8103
3.6720           12252.5989
3.6760           12262.3883
3.6800           12272.1786
3.6840           12281.9697
3.6880           12291.7617
3.6920           12301.5545
3.6960           12311.3482
3.7000           12321.1428
3.7040           12330.9383
3.7080           12340.7346
3.7120           12350.5317
3.7160           12360.3298
3.7200           12370.1287
3.7240           12379.9285
3.7280           12389.7291
3.7320           12399.5306
3.7360           12409.3330
3.7400           12419.1362
3.7440           12428.9404
3.7480           12438.7454
3.7520           12448.5512
3.7560           12458.3580
3.7600           12468.1656
3.7640           12477.9741
3.7680           12487.7835
3.7720           12497.5937
3.7760           12507.4048
3.7800           12517.2168
3.7840           12527.0297
3.7880           12536.8435
3.7920           12546.6581
3.7960           12556.4737
3.8000           12566.2901
3.8040           12576.1073
3.8080           12585.9255
3.8120           12595.7446
3.8160           12605.5645
3.8200           12615.3854
3.8240           12625.2071
3.8280           12635.0297
3.8320           12644.8532
3.8360           12654.6775
3.8400           12664.5028
3.8440           12674.3290
3.8480           12684.1560
3.8520           12693.9839
3.8560           12703.8128
3.8600           12713.6425
3.8640           12723.4731
3.8680           12733.3046
3.8720           12743.1370
3.8760           12752.9704
3.8800           12762.8046
3.8840           12772.6396
3.8880           12782.4756
3.8920           12792.3125
3.8960           12802.1503
3.9000           12811.9890
3.9040           12821.8286
3.9080           12831.6691
3.9120           12841.5105
3.9160           12851.3528
3.9200           12861.1960
3.9240           12871.0401
3.9280           12880.8851
3.9320           12890.7311
3.9360           12900.5779
3.9400           12910.4256
3.9440           12920.2743
3.9480           12930.1238
3.9520           12939.9743
3.9560           12949.8256
3.9600           12959.6779
3.9640           12969.5311
3.9680           12979.3852
3.9720           12989.2402
3.9760           12999.0961
3.9800           13008.9530
3.9840           13018.8107
3.9880           13028.6694
3.9920           13038.5290
3.9960           13048.3895
4.0000           13058.2509
4.0040           13068.1132
4.0080           13077.9765
4.0120           13087.8407
4.0160           13097.7058
4.0200           13107.5718
4.0240           13117.4387
4.0280           13127.3066
4.0320           13137.1753
4.0360           13147.0451
4.0400           13156.9157
4.0440           13166.7872
4.0480           13176.6597
4.0520           13186.5331
4.0560           13196.4074
4.0600           13206.2827
4.0640           13216.1589
4.0680           13226.0360
4.0720           13235.9140
4.0760           13245.7930
4.0800           13255.6729
4.0840           13265.5538
4.0880           13275.4355
4.0920           13285.3182
4.0960           13295.2019
4.1000           13305.0864
4.1040           13314.9719
4.1080           13324.8584
4.1120           13334.7457
4.1160           13344.6340
4.1200           13354.5233
4.1240           13364.4135
4.1280           13374.3046
4.1320           13384.1967
4.1360           13394.0897
4.1400           13403.9836
4.1440           13413.8785
4.1480           13423.7743
4.1520           13433.6711
4.1560           13443.5688
4.1600           13453.4674
4.1640           13463.3670
4.1680           13473.2676
4.1720           13483.1690
4.1760           13493.0715
4.1800           13502.9748
4.1840           13512.8792
4.1880           13522.7844
4.1920           13532.6907
4.1960           13542.5978
4.2000           13552.5060
4.2040           13562.4150
4.2080           13572.3251
4.2120           13582.2360
4.2160           13592.1480
4.2200           13602.0608
4.2240           13611.9747
4.2280           13621.8895
4.2320           13631.8052
4.2360           13641.7219
4.2400           13651.6395
4.2440           13661.5581
4.2480           13671.4777
4.2520           13681.3982
4.2560           13691.3197
4.2600           13701.2422
4.2640           13711.1656
4.2680           13721.0899
4.2720           13731.0152
4.2760           13740.9415
4.2800           13750.8688
4.2840           13760.7970
4.2880           13770.7262
4.2920           13780.6563
4.2960           13790.5874
4.3000           13800.5195
4.3040           13810.4525
4.3080           13820.3865
4.3120           13830.3214
4.3160           13840.2574
4.3200           13850.1943
4.3240           13860.1321
4.3280           13870.0710
4.3320           13880.0108
4.3360           13889.9516
4.3400           13899.8933
4.3440           13909.8360
4.3480           13919.7797
4.3520           13929.7244
4.3560           13939.6700
4.3600           13949.6166
4.3640           13959.5642
4.3680           13969.5128
4.3720           13979.4623
4.3760           13989.4128
4.3800           13999.3643
4.3840           14009.3168
4.3880           14019.2703
4.3920           14029.2247
4.3960           14039.1801
4.4000           14049.1365
4.4040           14059.0938
4.4080           14069.0522
4.4120           14079.0115
4.4160           14088.9718
4.4200           14098.9331
4.4240           14108.8954
4.4280           14118.8586
4.4320           14128.8229
4.4360           14138.7881
4.4400           14148.7543
4.4440           14158.7215
4.4480           14168.6897
4.4520           14178.6589
4.4560           14188.6290
4.4600           14198.6002
4.4640           14208.5723
4.4680           14218.5455
4.4720           14228.5196
4.4760           14238.4947
4.4800           14248.4708
4.4840           14258.4479
4.4880           14268.4260
4.4920           14278.4050
4.4960           14288.3851
4.5000           14298.3662
4.5040           14308.3482
4.5080           14318.3313
4.5120           14328.3153
4.5160           14338.3004
4.5200           14348.2864
4.5240           14358.2735
4.5280           14368.2615
4.5320           14378.2505
4.5360           14388.2406
4.5400           14398.2316
4.5440           14408.2236
4.5480           14418.2167
4.5520           14428.2107
4.5560           14438.2057
4.5600           14448.2018
4.5640           14458.1988
4.5680           14468.1968
4.5720           14478.1959
4.5760           14488.1959
4.5800           14498.1970
4.5840           14508.1991
4.5880           14518.2021
4.5920           14528.2062
4.5960           14538.2113
4.6000           14548.2174
4.6040           14558.2245
4.6080           14568.2326
4.6120           14578.2417
4.6160           14588.2518
4.6200           14598.2629
4.6240           14608.2751
4.6280           14618.2882
4.6320           14628.3024
4.6360           14638.3176
4.6400           14648.3338
4.6440           14658.3510
4.6480           14668.3692
4.6520           14678.3884
4.6560           14688.4086
4.6600           14698.4299
4.6640           14708.4522
4.6680           14718.4755
4.6720           14728.4998
4.6760           14738.5251
4.6800           14748.5515
4.6840           14758.5788
4.6880           14768.6072
4.6920           14778.6366
4.6960           14788.6670
4.7000           14798.6985
4.7040           14808.7309
4.7080           14818.7644
4.7120           14828.7989
4.7160           14838.8344
4.7200           14848.8710
4.7240           14858.9086
4.7280           14868.9472
4.7320           14878.9868
4.7360           14889.0274
4.7400           14899.0691
4.7440           14909.1118
4.7480           14919.1555
4.7520           14929.2003
4.7560           14939.2460
4.7600           14949.2928
4.7640           14959.3407
4.7680           14969.3895
4.7720           14979.4394
4.7760           14989.4903
4.7800           14999.5423
4.7840           15009.5953
4.7880           15019.6493
4.7920           15029.7043
4.7960           15039.7604
4.8000           15049.8175
4.8040           15059.8757
4.8080           15069.9348
4.8120           15079.9950
4.8160           15090.0563
4.8200           15100.1186
4.8240           15110.1819
4.8280           15120.2462
4.8320           15130.3116
4.8360           15140.3780
4.8400           15150.4455
4.8440           15160.5140
4.8480           15170.5835
4.8520           15180.6541
4.8560           15190.7257
4.8600           15200.7984
4.8640           15210.8721
4.8680           15220.9468
4.8720           15231.0226
4.8760           15241.0994
4.8800           15251.1773
4.8840           15261.2562
4.8880           15271.3361
4.8920           15281.4171
4.8960           15291.4992
4.9000           15301.5822
4.9040           15311.6664
4.9080           15321.7515
4.9120           15331.8377
4.9160           15341.9250
4.9200           15352.0133
4.9240           15362.1027
4.9280           15372.1931
4.9320           15382.2845
4.9360           15392.3770
4.9400           15402.4706
4.9440           15412.5652
4.9480           15422.6608
4.9520           15432.7575
4.9560           15442.8552
4.9600           15452.9540
4.9640           15463.0539
4.9680           15473.1548
4.9720           15483.2567
4.9760           15493.3598
4.9800           15503.4638
4.9840           15513.5689
4.9880           15523.6751
4.9920           15533.7823
4.9960           15543.8906
4.9920           15359.3148
4.9880           15174.1234
4.9840           14988.9442
4.9800           14803.7769
4.9760           14618.6215
4.9720           14433.4779
4.9680           14248.3462
4.9640           14063.2265
4.9600           13878.1186
4.9560           13693.0227
4.9520           13507.9388
4.9480           13322.8668
4.9440           13137.8068
4.9400           12952.7588
4.9360           12767.7228
4.9320           12582.6987
4.9280           12397.6867
4.9240           12212.6868
4.9200           12027.6988
4.9160           11842.7230
4.9120           11657.7592
4.9080           11472.8074
4.9040           11287.8678
4.9000           11102.9403
4.8960           10918.0249
4.8920           10733.1216
4.8880           10548.2304
4.8840           10363.3514
4.8800           10178.4846
4.8760           9993.6299
4.8720           9808.7874
4.8680           9623.9571
4.8640           9439.1391
4.8600           9254.3332
4.8560           9069.5396
4.8520           8884.7582
4.8480           8699.9891
4.8440           8515.2322
4.8400           8330.4877
4.8360           8145.7554
4.8320           7961.0354
4.8280           7776.3278
4.8240           7591.6324
4.8200           7406.9494
4.8160           7222.2788
4.8120           7037.6205
4.8080           6852.9746
4.8040           6668.3411
4.8000           6483.7200
4.7960           6299.1113
4.7920           6114.5150
4.7880           5929.9312
4.7840           5745.3598
4.7800           5560.8008
4.7760           5376.2544
4.7720           5191.7204
4.7680           5007.1989
4.7640           4822.6899
4.7600           4638.1934
4.7560           4453.7095
4.7520           4269.2381
4.7480           4084.7792
4.7440           3900.3329
4.7400           3715.8992
4.7360           3531.4781
4.7320           3347.0696
4.7280           3162.6737
4.7240           2978.2904
4.7200           2793.9198
4.7160           2609.5618
4.7120           2425.2165
4.7080           2240.8838
4.7040           2056.5638
4.7000           1872.2565
4.6960           1687.9619
4.6920           1503.6801
4.6880           1319.4110
4.6840           1135.1546
4.6800           950.9110
4.6760           766.6801
4.6720           582.4620
4.6680           398.2567
4.6640           214.4283
4.6600           30.7226
4.6560           -152.5640
